3201.04	230.911
3199.93	249.021
3198.83	208.238
3197.72	201.415
3196.62	217.221
3195.51	196.825
3194.41	226.199
3193.3	192.238
3192.2	210.296
3191.09	196.697
3189.98	210.228
3188.88	196.633
3187.77	212.419
3186.67	192.05
3185.56	187.5
3184.45	219.091
3183.34	264.222
3182.24	230.31
3181.13	239.302
3180.02	248.292
3178.91	277.591
3177.81	300.11
3176.7	245.915
3175.59	198.504
3174.48	212.004
3173.37	223.245
3172.26	214.19
3171.16	254.732
3170.05	250.182
3168.94	207.324
3167.83	234.329
3166.72	193.74
3165.61	241.009
3164.5	234.214
3163.39	243.183
3162.28	213.876
3161.17	193.582
3160.06	247.565
3158.94	218.271
3157.83	173.239
3156.72	236.196
3155.61	222.663
3154.5	229.373
3153.39	206.852
3152.27	197.826
3151.16	188.803
3150.05	202.256
3148.94	217.951
3147.82	211.176
3146.71	242.588
3145.6	231.319
3144.48	206.582
3143.37	211.038
3142.26	213.248
3141.14	226.68
3140.03	260.303
3138.92	235.58
3137.8	253.488
3136.69	215.317
3135.57	253.405
3134.46	206.278
3133.34	195.036
3132.23	226.384
3131.11	194.972
3129.99	221.828
3128.88	188.187
3127.76	226.236
3126.65	199.324
3125.53	217.205
3124.41	237.319
3123.3	196.988
3122.18	221.575
3121.06	230.49
3119.94	234.927
3118.83	212.518
3117.71	194.59
3116.59	205.74
3115.47	219.122
3114.36	190.023
3113.24	227.991
3112.12	194.431
3111	218.978
3109.88	189.899
3108.76	218.907
3107.64	225.571
3106.52	250.097
3105.4	214.334
3104.28	198.673
3103.16	241.047
3102.04	200.84
3100.92	252.124
3099.8	207.466
3098.68	276.577
3097.56	256.461
3096.44	214.054
3095.32	231.854
3094.19	236.274
3093.07	205.034
3091.95	236.196
3090.83	204.967
3089.71	202.706
3088.58	229.399
3087.46	213.774
3086.34	256.041
3085.22	238.191
3084.09	233.7
3082.97	218.084
3081.85	231.399
3080.72	224.687
3079.6	235.771
3078.47	246.852
3077.35	226.8
3076.22	233.432
3075.1	222.28
3073.98	224.466
3072.85	255.538
3071.72	233.279
3070.6	226.577
3069.47	202.109
3068.35	222.062
3067.22	215.365
3066.1	255.287
3064.97	210.855
3063.84	244.108
3062.72	224.099
3061.59	259.557
3060.46	224.025
3059.33	228.424
3058.21	239.473
3057.08	241.651
3055.95	270.427
3054.82	219.409
3053.7	241.532
3052.57	199.397
3051.44	203.795
3050.31	230.339
3049.18	259.089
3048.05	212.551
3046.92	247.935
3045.79	221.335
3044.66	247.854
3043.53	238.963
3042.4	241.136
3041.27	223.401
3040.14	254.326
3039.01	247.651
3037.88	254.243
3036.75	245.359
3035.62	249.739
3034.49	212.133
3033.36	220.935
3032.22	220.899
3031.09	227.489
3029.96	216.41
3028.83	236.246
3027.7	229.584
3026.56	233.961
3025.43	253.784
3024.3	264.774
3023.16	244.876
3022.03	229.396
3020.9	213.92
3019.76	260.19
3018.63	249.124
3017.49	249.083
3016.36	244.635
3015.23	233.577
3014.09	264.383
3012.96	262.137
3011.82	257.689
3010.69	264.253
3009.55	266.411
3008.41	228.944
3007.28	277.329
3006.14	244.273
3005.01	259.635
3003.87	246.393
3002.73	219.957
3001.6	244.112
3000.46	255.067
2999.32	233.04
2998.19	254.983
2997.05	250.545
2995.91	254.899
2994.77	239.478
2993.63	265.798
2992.5	265.755
2991.36	232.771
2990.22	281.036
2989.08	252.452
2987.94	263.385
2986.8	267.73
2985.66	274.269
2984.52	265.449
2983.38	276.372
2982.24	280.713
2981.1	260.932
2979.96	265.274
2978.82	267.422
2977.68	271.761
2976.54	256.378
2975.4	293.581
2974.26	295.723
2973.12	282.533
2971.98	310.954
2970.83	245.219
2969.69	251.746
2968.55	253.894
2967.41	275.736
2966.26	260.374
2965.12	269.082
2963.98	266.85
2962.84	308.358
2961.69	251.456
2960.55	312.629
2959.4	268.86
2958.26	229.477
2957.12	281.882
2955.97	310.238
2954.83	312.371
2953.68	259.902
2952.54	292.615
2951.39	262
2950.25	270.689
2949.1	281.557
2947.96	312.062
2946.81	294.556
2945.67	277.055
2944.52	268.284
2943.37	283.506
2942.23	283.459
2941.08	309.573
2939.93	252.849
2938.79	311.651
2937.64	244.05
2936.49	259.26
2935.34	287.535
2934.19	289.666
2933.05	263.487
2931.9	263.443
2930.75	285.169
2929.6	280.768
2928.45	291.603
2927.3	278.5
2926.15	263.226
2925.01	289.283
2923.86	252.266
2922.71	293.537
2921.56	300.01
2920.41	271.703
2919.26	284.698
2918.1	275.959
2916.95	267.224
2915.8	262.835
2914.65	254.104
2913.5	295.32
2912.35	267.047
2911.2	232.271
2910.05	269.129
2908.89	269.085
2907.74	288.567
2906.59	275.504
2905.44	290.641
2904.28	303.605
2903.13	268.862
2901.98	286.161
2900.82	312.124
2899.67	303.404
2898.52	281.686
2897.36	257.808
2896.21	236.104
2895.05	281.546
2893.9	281.499
2892.74	264.133
2891.59	270.583
2890.43	272.702
2889.28	270.493
2888.12	259.631
2886.97	294.199
2885.81	257.382
2884.66	326.54
2883.5	272.432
2882.34	281.034
2881.19	268.019
2880.03	257.169
2878.87	237.68
2877.72	252.763
2876.56	270.001
2875.4	274.276
2874.24	254.797
2873.09	246.119
2871.93	243.92
2870.77	250.354
2869.61	265.418
2868.45	265.374
2867.29	230.815
2866.13	273.913
2864.97	276.024
2863.81	286.759
2862.65	250.064
2861.5	256.489
2860.33	241.361
2859.17	237.012
2858.01	260.67
2856.85	295.09
2855.69	247.662
2854.53	249.774
2853.37	241.121
2852.21	243.234
2851.05	247.498
2849.89	279.734
2848.72	253.87
2847.56	271.037
2846.4	245.183
2845.24	288.15
2844.07	277.352
2842.91	262.258
2841.75	279.409
2840.58	247.129
2839.42	251.385
2838.26	251.343
2837.09	257.745
2835.93	277.03
2834.76	261.954
2833.6	285.525
2832.44	242.549
2831.27	272.554
2830.11	257.489
2828.94	278.9
2827.77	272.418
2826.61	276.663
2825.44	270.184
2824.28	237.979
2823.11	257.232
2821.94	276.479
2820.78	267.861
2819.61	265.674
2818.44	272.057
2817.28	229.175
2816.11	244.127
2814.94	282.627
2813.77	241.906
2812.61	231.163
2811.44	254.666
2810.27	250.344
2809.1	258.86
2807.93	278.067
2806.76	216.001
2805.59	258.731
2804.42	284.343
2803.25	267.195
2802.08	267.151
2800.91	273.517
2799.74	256.379
2798.57	279.834
2797.4	219.986
2796.23	288.283
2795.06	292.505
2793.89	241.223
2792.72	277.467
2791.55	277.421
2790.38	234.702
2789.2	245.329
2788.03	251.687
2786.86	245.248
2785.69	247.339
2784.51	251.562
2783.34	260.046
2782.17	247.216
2781	277.006
2779.82	283.352
2778.65	264.133
2777.47	244.922
2776.3	295.987
2775.13	259.744
2773.95	266.086
2772.78	276.684
2771.6	276.638
2770.43	338.293
2769.25	293.564
2768.08	287.134
2766.9	321.111
2765.73	246.641
2764.55	303.998
2763.37	263.562
2762.2	308.147
2761.02	297.471
2759.84	267.68
2758.67	246.394
2757.49	265.467
2756.31	250.559
2755.13	275.994
2753.96	280.193
2752.78	265.29
2751.6	301.319
2750.42	303.391
2749.24	322.431
2748.07	277.839
2746.89	288.395
2745.71	279.866
2744.53	307.378
2743.35	292.49
2742.17	309.394
2740.99	277.561
2739.81	264.804
2738.63	294.413
2737.45	266.834
2736.27	307.019
2735.09	317.553
2733.9	309.033
2732.72	275.121
2731.54	277.191
2730.36	258.104
2729.18	294.02
2728	323.58
2726.81	283.35
2725.63	317.13
2724.45	287.483
2723.27	287.435
2722.08	325.423
2720.9	331.707
2719.72	302.078
2718.53	291.467
2717.35	297.754
2716.16	308.261
2714.98	331.431
2713.8	322.933
2712.61	301.776
2711.43	331.265
2710.24	345.977
2709.06	358.575
2707.87	291.03
2706.69	293.09
2705.5	297.257
2704.31	303.531
2703.13	301.373
2701.94	303.43
2700.75	311.806
2699.57	294.902
2698.38	307.49
2697.19	267.429
2696.01	275.806
2694.82	284.18
2693.63	292.551
2692.44	313.546
2691.25	309.285
2690.07	281.887
2688.88	309.182
2687.69	296.513
2686.5	254.412
2685.31	313.232
2684.12	327.892
2682.93	275.299
2681.74	296.265
2680.55	304.619
2679.36	310.869
2678.17	319.218
2676.98	285.568
2675.79	285.52
2674.6	260.284
2673.41	306.412
2672.22	314.754
2671.02	306.309
2669.83	264.305
2668.64	278.942
2667.45	230.665
2666.25	299.815
2665.06	285.091
2663.87	289.235
2662.68	280.804
2661.48	278.662
2660.29	284.9
2659.1	318.364
2657.9	245.016
2656.71	268.006
2655.51	267.962
2654.32	297.22
2653.13	242.759
2651.93	265.735
2650.74	269.874
2649.54	257.279
2648.34	225.865
2647.15	263.466
2645.95	232.062
2644.76	252.926
2643.56	225.714
2642.36	275.827
2641.17	273.691
2639.97	269.467
2638.77	240.183
2637.58	261.024
2636.38	244.278
2635.18	273.462
2633.98	252.545
2632.79	242.068
2631.59	221.163
2630.39	306.656
2629.19	271.147
2627.99	258.589
2626.79	241.865
2625.59	245.994
2624.39	283.471
2623.2	214.652
2622	283.376
2620.8	224.996
2619.6	266.618
2618.39	270.738
2617.19	266.528
2615.99	241.501
2614.79	233.134
2613.59	255.988
2612.39	274.673
2611.19	257.982
2609.99	212.176
2608.78	241.257
2607.58	205.866
2606.38	207.911
2605.18	209.955
2603.97	216.155
2602.77	218.196
2601.57	220.237
2600.36	230.587
2599.16	216.009
2597.96	232.586
2596.75	234.624
2595.55	238.736
2594.34	222.091
2593.14	213.753
2591.93	211.642
2590.73	230.278
2589.52	199.126
2588.32	248.865
2587.11	201.132
2585.91	199.025
2584.7	211.429
2583.49	213.466
2582.29	219.646
2581.08	194.748
2579.87	250.644
2578.67	194.682
2577.46	200.862
2576.25	223.602
2575.04	238.055
2573.84	211.109
2572.63	229.698
2571.42	188.279
2570.21	217.209
2569	198.557
2567.79	237.815
2566.59	227.437
2565.38	221.197
2564.17	190.156
2562.96	245.921
2561.75	175.629
2560.54	202.455
2559.33	216.88
2558.12	208.583
2556.91	175.51
2555.69	198.19
2554.48	212.606
2553.27	210.506
2552.06	169.202
2550.85	235.192
2549.64	185.647
2548.42	241.3
2547.21	222.701
2546	191.738
2544.79	166.97
2543.57	187.552
2542.36	181.338
2541.15	199.85
2539.93	201.877
2538.72	177.127
2537.51	218.283
2536.29	222.364
2535.08	179.096
2533.86	201.707
2532.65	205.788
2531.43	191.351
2530.22	201.605
2529	181.002
2527.79	187.141
2526.57	195.334
2525.35	185.022
2524.14	191.158
2522.92	215.787
2521.7	180.819
2520.49	195.17
2519.27	205.407
2518.05	217.695
2516.84	186.857
2515.62	221.727
2514.4	197.058
2513.18	197.025
2511.96	209.303
2510.74	176.442
2509.53	166.155
2508.31	170.229
2507.09	215.314
2505.87	221.428
2504.65	204.992
2503.43	200.858
2502.21	170.086
2500.99	182.35
2499.77	190.514
2498.55	165.903
2497.33	206.832
2496.11	182.227
2494.89	204.715
2493.66	202.634
2492.44	175.995
2491.22	171.874
2490	212.76
2488.78	163.634
2487.55	173.832
2486.33	159.489
2485.11	212.616
2483.89	183.964
2482.66	237.069
2481.44	179.815
2480.21	194.085
2478.99	200.181
2477.77	165.427
2476.54	179.693
2475.32	175.58
2474.09	167.385
2472.87	204.093
2471.64	169.369
2470.42	150.978
2469.19	169.312
2467.97	197.837
2466.74	177.411
2465.51	189.614
2464.29	167.159
2463.06	201.779
2461.83	193.594
2460.61	177.261
2459.38	154.823
2458.15	158.87
2456.93	195.499
2455.7	183.25
2454.47	179.147
2453.24	189.294
2452.01	179.087
2450.78	166.848
2449.56	203.439
2448.33	195.268
2447.1	183.033
2445.87	174.868
2444.64	176.872
2443.41	152.45
2442.18	150.392
2440.95	178.814
2439.72	172.689
2438.49	168.597
2437.25	178.723
2436.02	186.815
2434.79	166.481
2433.56	168.483
2432.33	198.898
2431.1	154.221
2429.86	146.079
2428.63	194.74
2427.4	188.622
2426.17	174.395
2424.93	180.448
2423.7	154.064
2422.47	188.494
2421.23	143.88
2420	156.012
2418.77	178.269
2417.53	143.807
2416.3	186.309
2415.06	180.204
2413.83	180.173
2412.59	224.672
2411.36	151.78
2410.12	165.918
2408.89	155.774
2407.65	165.861
2406.41	155.721
2405.18	167.827
2403.94	167.799
2402.7	165.749
2401.47	177.847
2400.23	159.631
2398.99	141.421
2397.75	165.636
2396.52	153.491
2395.28	121.156
2394.04	155.457
2392.8	169.561
2391.56	153.386
2390.32	141.253
2389.08	169.475
2387.85	133.136
2386.61	165.384
2385.37	165.355
2384.13	171.376
2382.89	191.505
2381.65	143.101
2380.4	145.092
2379.16	141.037
2377.92	173.245
2376.68	120.848
2375.44	201.379
2374.2	179.197
2372.96	187.219
2371.71	177.123
2370.47	150.932
2369.23	162.979
2367.99	193.127
2366.74	177.003
2365.5	166.918
2364.26	201.071
2363.01	124.643
2361.77	170.853
2360.53	152.736
2359.28	136.636
2358.04	150.675
2356.79	138.598
2355.55	170.707
2354.3	160.638
2353.06	134.512
2351.81	124.452
2350.57	162.563
2349.32	152.503
2348.08	152.477
2346.83	136.403
2345.58	158.442
2344.34	150.394
2343.09	164.402
2341.84	160.365
2340.59	142.3
2339.35	140.272
2338.1	128.227
2336.85	178.285
2335.6	142.203
2334.35	176.222
2333.11	132.144
2331.86	164.151
2330.61	146.109
2329.36	154.089
2328.11	134.055
2326.86	124.029
2325.61	142.01
2324.36	179.981
2323.11	181.95
2321.86	107.952
2320.61	137.915
2319.36	181.857
2318.11	167.84
2316.85	137.845
2315.6	149.806
2314.35	127.812
2313.1	149.755
2311.85	139.747
2310.59	139.723
2309.34	179.614
2308.09	157.634
2306.83	151.622
2305.58	159.575
2304.33	169.52
2303.07	125.622
2301.82	145.538
2300.57	145.513
2299.31	149.474
2298.06	117.566
2296.8	135.477
2295.55	133.462
2294.29	143.397
2293.04	147.355
2291.78	161.267
2290.52	145.314
2289.27	133.348
2288.01	183.074
2286.76	155.188
2285.5	151.183
2284.24	129.279
2282.99	131.246
2281.73	159.059
2280.47	119.274
2279.21	133.166
2277.95	137.118
2276.7	127.16
2275.44	147.004
2274.18	150.951
2272.92	137.024
2271.66	140.972
2270.4	156.829
2269.14	136.954
2267.88	127.008
2266.62	115.081
2265.36	138.868
2264.1	152.728
2262.84	122.955
2261.58	138.796
2260.32	136.79
2259.06	156.588
2257.8	180.343
2256.53	124.831
2255.27	136.697
2254.01	144.596
2252.75	150.513
2251.49	132.666
2250.22	160.36
2248.96	164.292
2247.7	116.766
2246.43	160.278
2245.17	138.488
2243.91	138.465
2242.64	134.485
2241.38	172.033
2240.11	134.439
2238.85	126.51
2237.58	142.299
2236.32	140.299
2235.05	136.323
2233.79	148.152
2232.52	130.351
2231.26	118.481
2229.99	132.281
2228.72	148.051
2227.46	120.394
2226.19	134.187
2224.92	136.137
2223.65	149.922
2222.39	179.481
2221.12	138.039
2219.85	159.703
2218.58	126.164
2217.31	128.113
2216.05	137.944
2214.78	151.712
2213.51	141.837
2212.24	161.509
2210.97	149.665
2209.7	139.795
2208.43	151.583
2207.16	94.4768
2205.89	145.627
2204.62	153.472
2203.35	143.61
2202.08	135.717
2200.81	137.661
2199.53	112.076
2198.26	114.023
2196.99	127.762
2195.72	155.253
2194.45	155.227
2193.17	137.519
2191.9	131.603
2190.63	127.653
2189.35	139.412
2188.08	151.167
2186.81	127.587
2185.53	105.977
2184.26	145.203
2182.99	98.0932
2181.71	129.461
2180.44	141.206
2179.16	127.456
2177.89	143.118
2176.61	119.571
2175.33	133.27
2174.06	145.004
2172.78	150.856
2171.51	160.625
2170.23	123.386
2168.95	168.402
2167.68	172.289
2166.4	135.067
2165.12	183.973
2163.84	97.841
2162.57	138.91
2161.29	136.93
2160.01	119.304
2158.73	142.75
2157.45	146.635
2156.17	148.565
2154.9	150.494
2153.62	130.927
2152.34	132.858
2151.06	138.696
2149.78	144.531
2148.5	134.742
2147.22	115.195
2145.94	134.696
2144.65	177.612
2143.37	156.116
2142.09	136.578
2140.81	165.816
2139.53	136.531
2138.25	152.108
2136.96	115.036
2135.68	169.601
2134.4	116.946
2133.12	128.618
2131.83	167.565
2130.55	134.418
2129.27	148.03
2127.98	126.582
2126.7	97.3544
2125.41	140.166
2124.13	120.678
2122.85	163.471
2121.56	134.257
2120.28	171.196
2118.99	145.881
2117.7	132.242
2116.42	139.997
2115.13	124.421
2113.85	128.287
2112.56	110.774
2111.27	145.73
2109.99	124.335
2108.7	145.68
2107.41	147.597
2106.13	130.096
2104.84	118.425
2103.55	128.11
2102.26	130.029
2100.97	149.41
2099.68	131.924
2098.4	93.1068
2097.11	124.121
2095.82	141.551
2094.53	126.017
2093.24	137.625
2091.95	164.735
2090.66	106.575
2089.37	137.554
2088.08	139.468
2086.79	108.456
2085.49	125.865
2084.2	176.18
2082.91	108.4
2081.62	87.0922
2080.33	118.038
2079.04	121.887
2077.74	116.063
2076.45	133.449
2075.16	116.023
2073.87	135.337
2072.57	129.514
2071.28	135.29
2069.98	144.928
2068.69	110.127
2067.4	131.356
2066.1	150.647
2064.81	154.484
2063.51	156.388
2062.22	119.683
2060.92	148.613
2059.63	148.588
2058.33	123.48
2057.03	108.027
2055.74	98.3643
2054.44	129.201
2053.15	119.539
2051.85	100.241
2050.55	129.134
2049.25	123.331
2047.96	125.236
2046.66	127.141
2045.36	111.711
2044.06	138.651
2042.76	111.672
2041.47	138.604
2040.17	128.956
2038.87	136.631
2037.57	130.836
2036.27	136.584
2034.97	130.79
2033.67	103.845
2032.37	115.363
2031.07	167.248
2029.77	123.012
2028.47	140.286
2027.17	124.89
2025.86	140.237
2024.56	134.451
2023.26	94.0994
2021.96	111.364
2020.66	136.301
2019.35	113.245
2018.05	126.658
2016.75	138.149
2015.45	138.125
2014.14	126.593
2012.84	95.8869
2011.53	113.127
2010.23	118.859
2008.93	120.755
2007.62	128.4
2006.32	118.797
2005.01	126.439
2003.71	122.587
2002.4	128.311
2001.1	141.692
1999.79	135.924
1998.48	135.9
1997.18	118.653
1995.87	114.806
1994.56	118.612
1993.26	143.457
1991.95	147.257
1990.64	126.199
1989.33	108.971
1988.03	86.0147
1986.72	139.511
1985.41	122.29
1984.1	122.268
1982.79	108.876
1981.48	122.226
1980.17	139.39
1978.86	131.729
1977.55	141.25
1976.24	146.951
1974.93	129.753
1973.62	160.255
1972.31	125.893
1971	137.314
1969.69	133.476
1968.38	137.266
1967.07	104.838
1965.76	121.972
1964.45	108.612
1963.13	140.981
1961.82	125.718
1960.51	137.123
1959.19	106.633
1957.88	104.711
1956.57	108.499
1955.25	127.512
1953.94	140.81
1952.63	110.345
1951.31	121.739
1950	117.914
1948.68	104.583
1947.37	106.466
1946.05	110.25
1944.74	152.042
1943.42	102.61
1942.11	112.092
1940.79	138.666
1939.47	106.355
1938.16	106.337
1936.84	123.405
1935.52	146.163
1934.21	111.975
1932.89	106.263
1931.57	134.703
1930.25	144.164
1928.93	125.173
1927.62	91.0193
1926.3	117.546
1924.98	104.257
1923.66	117.505
1922.34	153.488
1921.02	130.727
1919.7	145.858
1918.38	151.514
1917.06	147.701
1915.74	138.209
1914.42	123.041
1913.1	96.5232
1911.78	132.46
1910.46	98.3816
1909.13	105.931
1907.81	105.913
1906.49	124.804
1905.17	136.126
1903.85	134.212
1902.52	137.968
1901.2	156.841
1899.88	145.478
1898.55	120.895
1897.23	132.206
1895.91	130.295
1894.58	122.72
1893.26	109.485
1891.93	132.114
1890.61	109.447
1889.28	115.088
1887.96	118.841
1886.63	118.82
1885.31	99.9423
1883.98	109.352
1882.65	109.333
1881.33	120.622
1880	148.867
1878.67	131.884
1877.35	101.722
1876.02	160.089
1874.69	122.4
1873.36	131.792
1872.04	99.7683
1870.71	112.926
1869.38	111.024
1868.05	111.005
1866.72	120.391
1865.39	114.728
1864.06	139.153
1862.73	131.609
1861.4	63.9131
1860.07	131.563
1858.74	125.902
1857.41	80.789
1856.08	112.709
1854.75	103.299
1853.42	135.204
1852.09	105.14
1850.75	118.262
1849.42	114.488
1848.09	121.974
1846.76	103.191
1845.43	123.807
1844.09	120.034
1842.76	121.889
1841.43	136.866
1840.09	112.473
1838.76	116.202
1837.42	112.434
1836.09	108.667
1834.76	146.113
1833.42	110.502
1832.09	136.699
1830.75	129.186
1829.41	117.932
1828.08	140.371
1826.74	101.049
1825.41	134.709
1824.07	127.203
1822.73	123.44
1821.4	145.858
1820.06	121.527
1818.72	85.9888
1817.38	136.437
1816.05	106.514
1814.71	123.311
1813.37	85.9287
1812.03	98.9875
1810.69	123.246
1809.35	125.091
1808.01	113.869
1806.68	121.315
1805.34	102.633
1804	151.124
1802.66	100.732
1801.31	102.579
1799.97	145.451
1798.63	104.408
1797.29	126.759
1795.95	121.145
1794.61	106.216
1793.27	130.418
1791.93	122.944
1790.58	124.785
1789.24	113.591
1787.9	96.8144
1786.55	85.6285
1785.21	91.197
1783.87	91.181
1782.52	128.375
1781.18	137.654
1779.84	132.05
1778.49	122.729
1777.15	115.271
1775.8	105.956
1774.46	118.948
1773.11	137.509
1771.77	118.906
1770.42	109.597
1769.07	115.15
1767.73	133.699
1766.38	107.683
1765.03	105.808
1763.69	124.349
1762.34	137.316
1760.99	144.714
1759.64	102.024
1758.3	139.099
1756.95	129.803
1755.6	131.634
1754.25	133.465
1752.9	122.321
1751.55	126.006
1750.2	137.1
1748.85	92.6188
1747.5	137.052
1746.15	140.731
1744.8	129.598
1743.45	118.469
1742.1	127.702
1740.75	114.726
1739.4	107.306
1738.05	136.884
1736.7	135.01
1735.35	131.288
1733.99	112.777
1732.64	118.303
1731.29	114.586
1729.94	123.805
1728.58	129.325
1727.23	145.927
1725.87	121.893
1724.52	131.104
1723.17	120.003
1721.81	142.133
1720.46	145.799
1719.1	108.869
1717.75	138.368
1716.39	127.276
1715.04	129.098
1713.68	112.48
1712.33	145.646
1710.97	106.911
1709.61	151.123
1708.26	165.838
1706.9	140.016
1705.54	147.36
1704.18	132.6
1702.83	138.101
1701.47	121.508
1700.11	150.937
1698.75	150.911
1697.39	154.564
1696.03	158.217
1694.68	130.598
1693.32	126.897
1691.96	147.101
1690.6	148.913
1689.24	137.858
1687.88	126.807
1686.52	167.209
1685.15	169.017
1683.79	156.129
1682.43	165.284
1681.07	132.204
1679.71	178.077
1678.35	143.171
1676.98	189.026
1675.62	179.818
1674.26	174.283
1672.9	165.081
1671.53	165.052
1670.17	192.526
1668.81	201.659
1667.44	175.962
1666.08	181.429
1664.71	207.049
1663.35	196.021
1661.98	210.64
1660.62	175.807
1659.25	212.396
1657.89	210.528
1656.52	241.607
1655.16	256.205
1653.79	219.566
1652.42	256.115
1651.06	257.899
1649.69	279.798
1648.32	276.092
1646.95	292.496
1645.59	281.478
1644.22	312.495
1642.85	352.637
1641.48	343.44
1640.11	372.604
1638.74	381.669
1637.37	385.253
1636.01	439.951
1634.64	421.621
1633.27	434.321
1631.9	441.543
1630.53	467.004
1629.15	505.224
1627.78	525.194
1626.41	528.748
1625.04	545.061
1623.67	574.127
1622.3	519.356
1620.93	579.39
1619.55	592.039
1618.18	582.828
1616.81	606.398
1615.43	577.16
1614.06	628.029
1612.69	671.599
1611.31	633.266
1609.94	740.499
1608.57	674.881
1607.19	683.856
1605.82	660.095
1604.44	670.887
1603.07	701.672
1601.69	746.985
1600.31	706.875
1598.94	761.255
1597.56	719.341
1596.19	691.971
1594.81	711.823
1593.43	697.173
1592.05	715.202
1590.68	785.857
1589.3	758.499
1587.92	702.123
1586.54	725.58
1585.16	739.96
1583.79	705.377
1582.41	616.415
1581.03	690.626
1579.65	686.879
1578.27	643.269
1576.89	648.59
1575.51	633.984
1574.13	626.628
1572.75	593.923
1571.37	572.093
1569.99	570.182
1568.6	535.695
1567.22	537.41
1565.84	546.36
1564.46	539.028
1563.08	499.146
1561.69	479.168
1560.31	479.083
1558.93	507.918
1557.54	504.214
1556.16	496.897
1554.78	424.546
1553.39	438.921
1552.01	426.201
1550.62	464.044
1549.24	429.661
1547.85	407.925
1546.47	449.36
1545.08	380.716
1543.7	405.904
1542.31	385.992
1540.92	366.086
1539.54	351.597
1538.15	351.534
1536.76	369.496
1535.38	340.597
1533.99	376.572
1532.6	338.675
1531.21	362.03
1529.83	372.77
1528.44	342.096
1527.05	352.836
1525.66	323.976
1524.27	323.918
1522.88	318.463
1521.49	343.591
1520.1	352.523
1518.71	305.706
1517.32	321.833
1515.93	302.002
1514.54	300.151
1513.15	334.241
1511.76	321.604
1510.36	282.028
1508.97	305.326
1507.58	271.153
1506.19	308.808
1504.8	317.729
1503.4	305.109
1502.01	319.41
1500.62	339.089
1499.22	310.328
1497.83	315.653
1496.43	303.045
1495.04	302.991
1493.64	311.9
1492.25	295.715
1490.85	284.911
1489.46	277.694
1488.06	290.183
1486.67	277.595
1485.27	302.614
1483.87	272.126
1482.48	304.297
1481.08	295.294
1479.68	309.557
1478.29	300.557
1476.89	298.714
1475.49	291.508
1474.09	278.939
1472.69	296.767
1471.3	309.226
1469.9	277.003
1468.5	293.035
1467.1	301.916
1465.7	291.145
1464.3	298.236
1462.9	292.827
1461.5	303.486
1460.1	269.519
1458.7	321.224
1457.3	319.382
1455.89	290.782
1454.49	303.216
1453.09	301.379
1451.69	324.504
1450.29	276.314
1448.88	303
1447.48	308.292
1446.08	290.42
1444.67	263.647
1443.27	315.252
1441.87	293.826
1440.46	309.798
1439.06	283.041
1437.65	343.504
1436.25	350.561
1434.84	316.694
1433.44	304.186
1432.03	304.131
1430.63	305.855
1429.22	369.806
1427.81	332.41
1426.41	350.124
1425	344.73
1423.59	357.105
1422.19	365.923
1420.78	378.29
1419.37	358.69
1417.96	365.728
1416.55	386.963
1415.15	347.85
1413.74	395.697
1412.33	386.756
1410.92	376.044
1409.51	379.524
1408.1	407.827
1406.69	388.253
1405.28	457.312
1403.87	425.331
1402.46	462.465
1401.04	435.808
1399.63	423.332
1398.22	453.362
1396.81	463.905
1395.4	470.903
1393.99	446.039
1392.57	465.426
1391.16	509.577
1389.75	488.258
1388.33	541.232
1386.92	530.525
1385.51	549.88
1384.09	542.71
1382.68	572.66
1381.26	584.928
1379.85	632.528
1378.43	628.882
1377.02	596.978
1375.6	610.998
1374.18	617.951
1372.77	642.554
1371.35	635.38
1369.94	617.62
1368.52	628.095
1367.1	617.399
1365.68	629.634
1364.27	654.209
1362.85	664.67
1361.43	683.941
1360.01	655.62
1358.59	644.93
1357.17	644.815
1355.75	612.993
1354.33	679.808
1352.91	665.599
1351.49	674.283
1350.07	619.595
1348.65	665.242
1347.23	628.171
1345.81	624.54
1344.39	591.009
1342.97	603.213
1341.55	627.722
1340.13	610.029
1338.7	594.101
1337.28	644.958
1335.86	562.261
1334.43	574.457
1333.01	549.764
1331.59	553.178
1330.16	547.812
1328.74	496.804
1327.32	552.881
1325.89	489.607
1324.47	505.31
1323.04	478.906
1321.62	470.05
1320.19	475.227
1318.76	445.336
1317.34	448.762
1315.91	441.671
1314.48	411.802
1313.06	388.951
1311.63	429.171
1310.2	390.563
1308.78	397.498
1307.35	381.669
1305.92	402.606
1304.49	346.53
1303.06	372.715
1301.63	393.642
1300.2	314.857
1298.77	325.294
1297.34	347.967
1295.91	309.443
1294.48	339.103
1293.05	312.827
1291.62	300.54
1290.19	279.522
1288.76	300.432
1287.33	284.661
1285.9	303.816
1284.47	289.796
1283.03	267.053
1281.6	303.653
1280.17	277.426
1278.73	256.442
1277.3	251.163
1275.87	249.374
1274.43	242.355
1273	270.204
1271.57	252.726
1270.13	254.423
1268.7	235.212
1267.26	226.46
1265.83	259.511
1264.39	259.464
1262.95	210.668
1261.52	181.037
1260.08	240.18
1258.64	210.554
1257.21	217.476
1255.77	217.437
1254.33	213.919
1252.9	191.275
1251.46	234.705
1250.02	225.971
1248.58	199.862
1247.14	194.613
1245.7	218.9
1244.26	224.072
1242.82	197.981
1241.38	203.155
1239.94	164.925
1238.5	192.667
1237.06	187.426
1235.62	189.128
1234.18	199.502
1232.74	182.122
1231.3	194.228
1229.86	175.121
1228.41	161.221
1226.97	175.058
1225.53	183.691
1224.09	147.273
1222.64	164.569
1221.2	190.519
1219.76	185.29
1218.31	150.629
1216.87	188.685
1215.42	143.652
1213.98	166.122
1212.53	169.552
1211.09	160.872
1209.64	136.63
1208.2	153.898
1206.75	191.905
1205.31	165.942
1203.86	160.728
1202.41	167.61
1200.96	145.121
1199.52	167.55
1198.07	153.704
1196.62	157.129
1195.17	177.818
1193.73	150.168
1192.28	158.77
1190.83	160.467
1189.38	127.66
1187.93	143.161
1186.48	141.41
1185.03	146.557
1183.58	165.494
1182.13	155.122
1180.68	125.799
1179.23	148.175
1177.78	148.148
1176.32	122.286
1174.87	156.704
1173.42	134.294
1171.97	123.941
1170.52	156.62
1169.06	99.8054
1167.61	137.638
1166.16	129.012
1164.7	165.106
1163.25	151.32
1161.8	113.469
1160.34	110.011
1158.89	128.896
1157.43	134.027
1155.98	127.131
1154.52	137.414
1153.06	128.803
1151.61	120.194
1150.15	116.739
1148.7	121.867
1147.24	126.993
1145.78	101.233
1144.32	108.077
1142.87	114.918
1141.41	94.3186
1139.95	125.164
1138.49	102.856
1137.03	130.26
1135.58	145.66
1134.12	135.353
1132.66	130.19
1131.2	138.73
1129.74	145.554
1128.28	116.422
1126.82	130.096
1125.36	166.013
1123.89	114.648
1122.43	126.603
1120.97	104.343
1119.51	135.109
1118.05	100.886
1116.59	112.835
1115.12	114.524
1113.66	146.974
1112.2	116.191
1110.73	126.42
1109.27	105.9
1107.81	105.881
1106.34	121.229
1104.88	121.207
1103.41	97.2894
1101.95	107.511
1100.48	102.373
1099.02	121.119
1097.55	104.041
1096.09	97.2012
1094.62	124.463
1093.15	115.917
1091.69	121.009
1090.22	102.243
1088.75	112.447
1087.28	98.799
1085.82	137.953
1084.35	122.603
1082.88	90.2327
1081.41	132.771
1079.94	129.343
1078.47	105.498
1077	93.5698
1075.53	100.357
1074.06	76.5293
1072.59	112.223
1071.12	105.402
1069.65	101.984
1068.18	88.3697
1066.71	98.5483
1065.24	83.2412
1063.77	100.211
1062.29	84.9092
1060.82	84.8938
1059.35	89.9711
1057.88	79.7712
1056.4	76.3628
1054.93	120.462
1053.45	76.335
1051.98	98.3695
1050.51	120.396
1049.03	103.42
1047.56	110.182
1046.08	99.9928
1044.61	99.9747
1043.13	96.5681
1041.66	77.918
1040.18	98.2266
1038.7	132.074
1037.23	94.805
1035.75	108.329
1034.27	86.3089
1032.79	103.213
1031.32	89.6609
1029.84	98.1017
1028.36	86.2461
1026.88	81.1581
1025.4	86.2147
1023.92	96.3401
1022.44	96.3226
1020.96	109.822
1019.48	96.2876
1018	82.7585
1016.52	97.9412
1015.04	87.7933
1013.56	106.346
1012.08	101.263
1010.6	107.994
1009.12	87.7294
1007.64	80.9663
1006.15	119.741
1004.67	92.7401
1003.19	133.184
1001.7	85.964
1000.22	109.542
998.737	128.057
997.253	97.7096
995.769	122.957
994.284	112.83
992.799	122.912
991.314	101.005
989.829	127.917
988.343	158.184
986.857	176.663
985.371	139.622
983.885	149.688
982.398	154.705
980.911	171.49
979.424	154.649
977.936	161.344
976.449	164.675
974.96	146.164
973.472	129.34
971.984	124.278
970.495	146.084
969.006	157.809
967.516	177.923
966.026	174.534
964.537	137.588
963.046	162.727
961.556	130.829
960.065	125.774
958.574	160.961
957.083	127.404
955.591	150.846
954.099	124.006
952.607	117.282
951.115	150.764
949.622	120.589
948.129	162.43
946.636	143.984
945.142	123.871
943.649	150.626
942.155	100.399
940.66	115.438
939.166	118.762
937.671	132.12
936.176	122.063
934.68	60.1844
933.185	83.5741
931.689	88.5724
930.192	58.4805
928.696	83.5283
927.199	75.1618
925.702	78.4879
924.205	71.795
922.707	98.4914
921.209	88.4591
919.711	70.0869
918.213	73.4109
916.714	55.0481
915.215	73.3841
913.716	53.3605
912.216	105.034
910.717	70.01
909.217	79.9968
907.716	86.6473
906.216	78.3015
904.715	106.604
903.214	56.6229
901.712	81.5887
900.21	113.204
898.708	76.5654
897.206	58.2457
895.704	98.1676
894.201	71.5327
892.698	79.8359
891.194	89.7989
889.691	66.5055
888.187	83.1167
886.683	89.7496
885.178	81.4245
883.673	61.4726
882.168	69.7669
880.663	74.7366
879.158	94.649
877.652	54.7867
876.146	41.4975
874.639	73.0222
873.133	64.7124
871.626	72.9954
870.118	82.9342
868.611	66.3352
867.103	96.1683
865.595	91.1774
864.087	56.3539
862.578	67.9437
861.069	74.5587
859.56	67.9188
858.051	74.5313
856.541	69.5498
855.031	71.1927
853.521	67.869
852.01	59.5813
850.499	57.9157
848.988	64.5227
847.477	57.8944
845.965	47.9608
844.453	69.4478
842.941	79.3543
841.429	67.7694
839.916	66.1043
838.403	77.6583
836.89	64.4281
835.376	56.1577
833.862	51.1932
832.348	56.1371
830.833	52.8252
829.319	51.165
827.804	57.7564
826.289	61.0455
824.773	62.6839
823.257	74.2173
821.741	89.0444
820.225	65.9467
818.708	56.0444
817.191	57.6821
815.674	51.0805
814.156	41.1864
812.639	67.5333
811.121	85.6362
809.602	55.9826
808.084	60.911
806.565	65.8377
805.046	82.2819
803.526	59.2321
802.006	60.8662
800.486	52.6314
798.966	64.1327
797.446	69.0533
795.925	77.2597
794.404	69.0279
792.882	73.9449
791.361	72.2883
789.839	91.9864
788.316	70.6194
786.794	52.5443
785.271	70.5934
783.748	57.4492
782.225	57.4386
780.701	65.632
779.177	67.2605
777.653	47.5657
776.128	77.0751
774.603	44.269
773.078	70.4895
771.553	75.3935
770.027	52.438
768.502	42.598
766.975	63.8853
765.449	52.409
763.922	72.0491
762.395	45.841
760.868	50.7432
759.34	36.0046
757.812	68.7235
756.284	47.4432
754.756	62.1555
753.227	68.6855
751.698	81.7533
750.169	44.1387
748.639	83.3577
747.11	63.7323
745.579	58.819
744.049	66.976
742.518	60.4306
740.987	48.9887
739.456	86.5308
737.925	50.603
736.393	47.3296
734.861	66.9019
733.328	53.8379
731.796	68.5083
730.263	26.0936
728.729	63.5914
727.196	78.2519
725.662	61.938
724.128	60.2969
722.594	58.6564
721.059	71.6779
719.524	63.521
717.989	45.5964
716.453	70.0101
714.918	71.625
713.382	56.9639
711.845	60.2079
710.309	53.689
708.772	55.3057
707.235	27.6477
705.697	40.6509
704.159	56.9008
702.621	63.392
701.083	42.2535
699.544	37.3712
698.005	64.9814
696.466	50.3513
694.927	73.0771
693.387	55.2036
691.847	63.31
690.307	51.9371
688.766	63.2866
687.225	53.5403
685.684	63.2632
684.142	56.7642
682.601	45.4029
681.059	55.1219
679.516	69.7001
677.974	66.446
676.431	46.9897
674.888	55.0812
673.344	87.4656
671.8	72.8745
670.256	45.3358
668.712	55.0404
667.168	61.5043
665.623	64.7294
664.077	74.4251
662.532	63.0878
660.986	54.9895
659.44	61.4474
657.894	33.9515
656.347	85.6712
654.8	58.181
653.253	61.4019
651.706	61.3905
650.158	58.1487
648.61	64.5977
647.062	56.5125
645.513	59.7307
643.964	59.7196
642.415	38.7299
640.865	75.8319
639.316	61.2996
637.766	58.0625
636.215	40.3137
634.665	67.7145
633.114	24.1793
631.562	38.6796
630.011	67.6768
628.459	43.4984
626.907	67.6517
625.355	40.2614
623.802	74.0672
622.249	72.4436
620.696	80.478
619.142	62.7612
617.589	54.7047
616.035	54.6946
614.48	56.2928
612.926	62.7146
611.371	43.4097
609.815	54.654
608.26	64.2869
606.704	59.4543
605.148	46.5907
603.592	30.5192
602.035	57.8152
600.478	61.0158
598.921	46.5561
597.363	57.783
595.805	60.9818
594.247	38.5077
592.689	60.9592
591.13	44.9089
589.571	84.9904
588.012	56.1153
586.452	68.9289
584.892	56.0945
583.332	35.2528
581.772	54.4715
580.211	54.4614
578.65	70.4663
577.089	57.6435
575.527	59.2337
573.965	46.4178
572.403	30.406
570.84	68.8008
569.278	41.5927
567.715	67.1758
566.151	41.5773
564.588	55.959
563.024	31.9706
561.459	49.5452
559.895	30.3608
558.33	67.1008
556.765	75.075
555.2	71.867
553.634	57.4829
552.068	62.2615
550.502	68.6345
548.935	68.6218
547.368	84.5646
545.801	86.1441
544.234	100.483
542.666	90.896
541.098	86.0959
539.53	97.2384
537.961	89.2514
536.392	122.698
534.823	149.759
533.253	183.182
531.684	202.259
530.114	300.943
528.543	485.558
526.973	950.243
525.402	1834.89
523.83	2951.5
522.259	3550.68
520.687	3142.85
519.115	1922.57
517.543	942.821
515.97	516.627
514.397	311.508
512.824	208.163
511.25	165.228
509.676	154.078
508.102	92.1121
506.527	95.2706
504.953	87.3151
503.378	66.6645
501.802	61.8912
500.227	69.8129
498.651	77.7317
497.074	79.3033
495.498	69.7739
493.921	66.5899
492.344	68.1626
490.767	52.3011
489.189	79.2293
487.611	68.1245
486.033	72.8637
484.454	50.6783
482.875	61.7527
481.296	68.0736
479.717	63.3124
478.137	44.3104
476.557	77.5287
474.976	45.8758
473.396	64.8467
471.815	45.8586
470.234	47.4311
468.652	56.9067
467.07	63.2178
465.488	31.603
463.906	31.5971
462.323	60.0232
460.74	53.695
459.157	41.0532
457.573	36.3095
455.989	33.1459
454.405	41.0301
452.82	37.8669
451.236	61.5222
449.65	44.1615
448.065	55.1916
446.479	59.9111
444.893	63.0525
443.307	59.8886
441.721	66.1803
440.134	51.9891
438.547	55.1296
436.959	31.4967
435.371	44.0872
433.783	56.6729
432.195	61.3842
430.606	48.7834
429.017	66.0813
427.428	51.9113
425.838	51.9015
424.249	47.1744
422.658	64.4596
421.068	58.1599
419.477	56.5774
417.886	61.2807
416.295	39.2752
414.703	67.5406
413.111	51.8238
411.519	23.5519
409.927	42.3854
408.334	17.2649
406.741	50.2157
405.147	43.9305
403.553	69.0207
401.959	31.3672
400.365	68.9948
398.771	31.3554
397.176	36.0519
395.58	64.2544
393.985	37.6053
392.389	64.2303
390.793	37.5912
389.196	54.8102
387.6	65.7599
386.003	37.57
384.405	61.0398
382.808	34.4263
381.21	39.1134
379.612	9.38546
378.013	56.3022
376.414	42.2187
374.815	32.8306
373.216	56.2705
371.616	53.1343
370.016	53.1244
368.416	40.6169
366.815	37.4855
365.214	49.9712
363.613	43.7166
362.011	65.5626
360.41	54.6252
358.808	45.2524
357.205	48.3642
355.602	40.5559
353.999	37.4292
352.396	32.7444
350.792	45.2099
349.188	34.2907
347.584	57.6599
345.98	57.6491
344.375	70.1005
342.77	52.9549
341.164	32.7013
339.559	35.8089
337.952	51.3684
336.346	38.9081
334.739	34.2327
333.133	87.1214
331.525	49.7743
329.918	65.3165
328.31	43.5361
326.702	52.8553
325.093	63.7253
323.484	62.1593
321.875	62.1476
320.266	48.1553
318.656	62.1242
317.046	54.3485
315.436	45.0231
313.825	66.7458
312.215	79.1487
310.603	68.2723
308.992	58.9514
307.38	52.736
305.768	66.683
304.156	69.7714
302.543	40.3048
300.93	63.5455
299.317	61.9839
297.703	57.3243
296.089	49.5685
294.475	51.1078
292.86	63.4857
291.245	54.1848
289.63	83.5837
288.015	57.2595
286.399	64.985
284.783	61.8788
283.167	57.2271
281.55	43.2989
279.933	30.9219
278.316	60.2864
276.698	55.6385
275.08	44.8114
273.462	29.3537
271.843	47.8838
270.225	58.6852
268.606	27.793
266.986	61.7505
265.366	52.478
263.746	54.0113
262.126	60.1727
260.505	52.4483
258.884	64.7769
257.263	53.9705
255.642	30.8345
254.02	43.1601
252.398	55.4811
250.775	27.7353
249.152	49.2979
247.529	43.1275
245.906	56.9792
244.282	61.5875
242.658	61.5758
241.034	27.7039
239.409	46.1644
237.784	44.6172
236.159	33.8411
234.533	19.9932
232.908	53.8178
231.281	58.4197
229.655	36.8897
228.028	9.22067
226.401	64.5325
224.774	49.1583
223.146	36.8618
221.518	27.6411
219.89	38.3831
218.261	50.6562
216.632	38.3686
215.003	26.0857
213.373	30.6833
211.743	52.1517
210.113	39.8732
208.483	13.7996
206.852	47.5231
205.221	26.0561
203.589	32.1809
201.958	47.4961
200.326	42.8916
198.693	29.0995
197.061	38.2815
195.428	55.115
193.795	38.267
192.161	32.1382
190.527	56.6138
188.893	44.3645
187.258	39.7676
185.624	55.0524
183.989	30.5788
182.353	47.3882
180.717	58.0778
179.081	44.3141
177.445	36.6668
175.808	42.7698
174.171	36.6529
172.534	51.9151
170.896	70.2247
169.258	39.6847
167.62	54.9377
165.982	45.7727
164.343	61.0187
162.704	44.2302
161.064	48.7964
159.425	44.2134
157.784	51.8265
156.144	35.0525
154.503	70.0916
152.862	45.7033
151.221	56.3567
149.579	44.163
147.937	42.6321
146.295	38.0571
144.653	56.3139
143.01	41.0861
141.366	60.8567
139.723	48.6761
138.079	53.2294
136.435	12.1644
134.79	19.7634
133.146	41.0393
131.501	42.5512
129.855	41.0237
128.21	3.03822
126.564	31.8952
124.917	6.07412
123.271	0
121.624	7.58977
119.976	15.1766
118.329	9.10426
116.681	-1.51709
115.033	16.6848
113.384	13.6486
111.735	13.646
110.086	1.51593
108.437	15.1565
106.787	-9.09215
105.137	-10.6055
103.486	-15.1478
101.836	-7.57246
100.185	-9.08523
